
# version 30001

data_Position_12

loop_ 
_rlnMicrographMovieName #1 
_rlnTomoTiltMovieFrameCount #2 
_rlnTomoNominalStageTiltAngle #3 
_rlnTomoNominalTiltAxisAngle #4 
_rlnMicrographPreExposure #5 
_rlnTomoNominalDefocus #6 
_rlnCtfPowerSpectrum #7 
_rlnMicrographNameEven #8 
_rlnMicrographNameOdd #9 
_rlnMicrographName #10 
_rlnMicrographMetadata #11 
_rlnAccumMotionTotal #12 
_rlnAccumMotionEarly #13 
_rlnAccumMotionLate #14 
_rlnCtfImage #15 
_rlnDefocusU #16 
_rlnDefocusV #17 
_rlnCtfAstigmatism #18 
_rlnDefocusAngle #19 
_rlnCtfFigureOfMerit #20 
_rlnCtfMaxResolution #21 
_cryoBoostTestLabel #22
data/tilts/frames//Position_12_001_-10.00_20231020_234209_EER.eer            1    -10.01000    -95.00000     0.000000     -3.50000 data/tilts/tiltImg/Position_12_001_-10_00_20231020_234209_EER_PS.mrc data/tilts/tiltImg/Position_12_001_-10_00_20231020_234209_EER_EVN.mrc data/tilts/tiltImg/Position_12_001_-10_00_20231020_234209_EER_ODD.mrc data/tilts/tiltImg/Position_12_001_-10_00_20231020_234209_EER.mrc data/tilts/tiltImg/Position_12_001_-10_00_20231020_234209_EER.star     5.870238     3.501585     2.368653 CtfFind/job007/data/tilts/frames//Position_12_001_-10_00_20231020_234209_EER_PS.ctf:mrc 33154.871094 32532.486328   622.384766    -81.90778     0.014743     9.376000  good
data/tilts/frames//Position_12_002_-12.00_20231020_234233_EER.eer            1    -11.99000    -95.00000     3.000000     -3.50000 data/tilts/tiltImg/Position_12_002_-12_00_20231020_234233_EER_PS.mrc data/tilts/tiltImg/Position_12_002_-12_00_20231020_234233_EER_EVN.mrc data/tilts/tiltImg/Position_12_002_-12_00_20231020_234233_EER_ODD.mrc data/tilts/tiltImg/Position_12_002_-12_00_20231020_234233_EER.mrc data/tilts/tiltImg/Position_12_002_-12_00_20231020_234233_EER.star     5.554936     0.000000     5.554936 CtfFind/job007/data/tilts/frames//Position_12_002_-12_00_20231020_234233_EER_PS.ctf:mrc 32668.527344 31524.228516  1144.298828     -4.38450     0.015526     9.494684  good
data/tilts/frames//Position_12_003_-8.00_20231020_234300_EER.eer            1     -7.99000    -95.00000     6.000000     -3.50000 data/tilts/tiltImg/Position_12_003_-8_00_20231020_234300_EER_PS.mrc data/tilts/tiltImg/Position_12_003_-8_00_20231020_234300_EER_EVN.mrc data/tilts/tiltImg/Position_12_003_-8_00_20231020_234300_EER_ODD.mrc data/tilts/tiltImg/Position_12_003_-8_00_20231020_234300_EER.mrc data/tilts/tiltImg/Position_12_003_-8_00_20231020_234300_EER.star     5.753326     0.000000     5.753326 CtfFind/job007/data/tilts/frames//Position_12_003_-8_00_20231020_234300_EER_PS.ctf:mrc 32965.707031 32098.000000   867.707031     5.869375     0.012774    10.639433  good
data/tilts/frames//Position_12_049_-58.00_20231021_000416_EER.eer            1    -57.99000    -95.00000   144.000000     -3.50000 data/tilts/tiltImg/Position_12_049_-58_00_20231021_000416_EER_PS.mrc data/tilts/tiltImg/Position_12_049_-58_00_20231021_000416_EER_EVN.mrc data/tilts/tiltImg/Position_12_049_-58_00_20231021_000416_EER_ODD.mrc data/tilts/tiltImg/Position_12_054_-64_00_20231020_234209_EER.mrc data/tilts/tiltImg/Position_12_049_-58_00_20231021_000416_EER.star    39.011853     0.000000    39.011853 CtfFind/job007/data/tilts/frames//Position_12_049_-58_00_20231021_000416_EER_PS.ctf:mrc 46128.812500 45177.214844   951.597656    -66.72610     0.012381    25.000000  bad
data/tilts/frames//Position_12_050_40.00_20231021_000501_EER.eer            1    40.010000    -95.00000   147.000000     -3.50000 data/tilts/tiltImg/Position_12_050_40_00_20231021_000501_EER_PS.mrc data/tilts/tiltImg/Position_12_050_40_00_20231021_000501_EER_EVN.mrc data/tilts/tiltImg/Position_12_050_40_00_20231021_000501_EER_ODD.mrc data/tilts/tiltImg/Position_12_055_65_00_20231020_234209_EER.mrc data/tilts/tiltImg/Position_12_050_40_00_20231021_000501_EER.star    37.651777     0.000000    37.651777 CtfFind/job007/data/tilts/frames//Position_12_050_40_00_20231021_000501_EER_PS.ctf:mrc 62588.000000 62045.753906   542.246094     2.819065     0.011233    25.000000  bad
data/tilts/frames//Position_12_051_42.00_20231021_000527_EER.eer            1    42.010000    -95.00000   150.000000     -3.50000 data/tilts/tiltImg/Position_12_051_42_00_20231021_000527_EER_PS.mrc data/tilts/tiltImg/Position_12_051_42_00_20231021_000527_EER_EVN.mrc data/tilts/tiltImg/Position_12_051_42_00_20231021_000527_EER_ODD.mrc data/tilts/tiltImg/Position_12_056_-66_00_20231020_234209_EER.mrc data/tilts/tiltImg/Position_12_051_42_00_20231021_000527_EER.star    30.180043     0.000000    30.180043 CtfFind/job007/data/tilts/frames//Position_12_051_42_00_20231021_000527_EER_PS.ctf:mrc 22412.714844 21809.339844   603.375000    -30.20383     0.011760    25.000000  bad
 
