# Created by the starfile Python package (version 0.5.6) at 15:49:59 on 11/11/2024


data_Position_2

loop_
_rlnMicrographMovieName #1
_rlnTomoTiltMovieFrameCount #2
_rlnTomoNominalStageTiltAngle #3
_rlnTomoNominalTiltAxisAngle #4
_rlnMicrographPreExposure #5
_rlnTomoNominalDefocus #6
_cryoBoostKey #7
_rlnMicrographName #8
_rlnMicrographNameEven #9
_rlnMicrographNameOdd #10
_rlnMicrographMetadata #11
_rlnAccumMotionTotal #12
_rlnAccumMotionEarly #13
_rlnAccumMotionLate #14
_rlnCtfImage #15
_rlnDefocusU #16
_rlnDefocusV #17
_rlnCtfAstigmatism #18
_rlnDefocusAngle #19
_rlnCtfFigureOfMerit #20
_rlnCtfMaxResolution #21
_cryoBoostDlLabel #22
_cryoBoostDlProbability #23
frames/Position_2_001[10.00]_EER.eer	1	9.980000	84.200000	0.000000	-5.500000	Position_2_001[10.00]_EER.mrc	External/job002/warp_frameseries/average/Position_2_001[10.00]_EER.mrc	External/job002/warp_frameseries/average/even/Position_2_001[10.00]_EER.mrc	External/job002/warp_frameseries/average/odd/Position_2_001[10.00]_EER.mrc	None	0.000001	0.000001	0.000001	External/job002/warp_frameseries/powerspectrum/Position_2_001[10.00]_EER.mrc	5.336134	5.336134	0.052409	126	None	0.000001	good	0.999204
frames/Position_2_002[13.00]_EER.eer	1	12.990000	84.200000	3.100000	-5.500000	Position_2_002[13.00]_EER.mrc	External/job002/warp_frameseries/average/Position_2_002[13.00]_EER.mrc	External/job002/warp_frameseries/average/even/Position_2_002[13.00]_EER.mrc	External/job002/warp_frameseries/average/odd/Position_2_002[13.00]_EER.mrc	None	0.000001	0.000001	0.000001	External/job002/warp_frameseries/powerspectrum/Position_2_002[13.00]_EER.mrc	5.340962	5.340962	0.049957	128	None	0.000001	good	0.999876
frames/Position_2_003[7.00]_EER.eer	1	6.990000	84.200000	6.200000	-5.500000	Position_2_003[7.00]_EER.mrc	External/job002/warp_frameseries/average/Position_2_003[7.00]_EER.mrc	External/job002/warp_frameseries/average/even/Position_2_003[7.00]_EER.mrc	External/job002/warp_frameseries/average/odd/Position_2_003[7.00]_EER.mrc	None	0.000001	0.000001	0.000001	External/job002/warp_frameseries/powerspectrum/Position_2_003[7.00]_EER.mrc	5.291324	5.291324	0.064336	118	None	0.000001	good	0.999908
frames/Position_2_004[4.00]_EER.eer	1	3.990000	84.200000	9.300000	-5.500000	Position_2_004[4.00]_EER.mrc	External/job002/warp_frameseries/average/Position_2_004[4.00]_EER.mrc	External/job002/warp_frameseries/average/even/Position_2_004[4.00]_EER.mrc	External/job002/warp_frameseries/average/odd/Position_2_004[4.00]_EER.mrc	None	0.000001	0.000001	0.000001	External/job002/warp_frameseries/powerspectrum/Position_2_004[4.00]_EER.mrc	5.266726	5.266726	0.076621	106	None	0.000001	good	0.999920
frames/Position_2_005[16.00]_EER.eer	1	15.990000	84.200000	12.400000	-5.500000	Position_2_005[16.00]_EER.mrc	External/job002/warp_frameseries/average/Position_2_005[16.00]_EER.mrc	External/job002/warp_frameseries/average/even/Position_2_005[16.00]_EER.mrc	External/job002/warp_frameseries/average/odd/Position_2_005[16.00]_EER.mrc	None	0.000001	0.000001	0.000001	External/job002/warp_frameseries/powerspectrum/Position_2_005[16.00]_EER.mrc	5.318515	5.318515	0.036299	116	None	0.000001	good	0.999904
frames/Position_2_006[19.00]_EER.eer	1	18.990000	84.200000	15.500000	-5.500000	Position_2_006[19.00]_EER.mrc	External/job002/warp_frameseries/average/Position_2_006[19.00]_EER.mrc	External/job002/warp_frameseries/average/even/Position_2_006[19.00]_EER.mrc	External/job002/warp_frameseries/average/odd/Position_2_006[19.00]_EER.mrc	None	0.000001	0.000001	0.000001	External/job002/warp_frameseries/powerspectrum/Position_2_006[19.00]_EER.mrc	5.323900	5.323900	0.065233	112	None	0.000001	good	0.999928
frames/Position_2_007[1.00]_EER.eer	1	1.000000	84.200000	18.600000	-5.500000	Position_2_007[1.00]_EER.mrc	External/job002/warp_frameseries/average/Position_2_007[1.00]_EER.mrc	External/job002/warp_frameseries/average/even/Position_2_007[1.00]_EER.mrc	External/job002/warp_frameseries/average/odd/Position_2_007[1.00]_EER.mrc	None	0.000001	0.000001	0.000001	External/job002/warp_frameseries/powerspectrum/Position_2_007[1.00]_EER.mrc	5.266989	5.266989	0.066708	109	None	0.000001	good	0.996566
frames/Position_2_008[-2.00]_EER.eer	1	-2.010000	84.200000	21.700000	-5.500000	Position_2_008[-2.00]_EER.mrc	External/job002/warp_frameseries/average/Position_2_008[-2.00]_EER.mrc	External/job002/warp_frameseries/average/even/Position_2_008[-2.00]_EER.mrc	External/job002/warp_frameseries/average/odd/Position_2_008[-2.00]_EER.mrc	None	0.000001	0.000001	0.000001	External/job002/warp_frameseries/powerspectrum/Position_2_008[-2.00]_EER.mrc	5.217911	5.217911	0.084016	116	None	0.000001	good	0.997414
frames/Position_2_009[22.00]_EER.eer	1	21.990000	84.200000	24.800000	-5.500000	Position_2_009[22.00]_EER.mrc	External/job002/warp_frameseries/average/Position_2_009[22.00]_EER.mrc	External/job002/warp_frameseries/average/even/Position_2_009[22.00]_EER.mrc	External/job002/warp_frameseries/average/odd/Position_2_009[22.00]_EER.mrc	None	0.000001	0.000001	0.000001	External/job002/warp_frameseries/powerspectrum/Position_2_009[22.00]_EER.mrc	5.331584	5.331584	0.046916	126	None	0.000001	good	0.999848
frames/Position_2_010[25.00]_EER.eer	1	24.990000	84.200000	27.900000	-5.500000	Position_2_010[25.00]_EER.mrc	External/job002/warp_frameseries/average/Position_2_010[25.00]_EER.mrc	External/job002/warp_frameseries/average/even/Position_2_010[25.00]_EER.mrc	External/job002/warp_frameseries/average/odd/Position_2_010[25.00]_EER.mrc	None	0.000001	0.000001	0.000001	External/job002/warp_frameseries/powerspectrum/Position_2_010[25.00]_EER.mrc	5.318840	5.318840	0.060150	110	None	0.000001	good	0.999823
frames/Position_2_011[-5.00]_EER.eer	1	-5.000000	84.200000	31.000000	-5.500000	Position_2_011[-5.00]_EER.mrc	External/job002/warp_frameseries/average/Position_2_011[-5.00]_EER.mrc	External/job002/warp_frameseries/average/even/Position_2_011[-5.00]_EER.mrc	External/job002/warp_frameseries/average/odd/Position_2_011[-5.00]_EER.mrc	None	0.000001	0.000001	0.000001	External/job002/warp_frameseries/powerspectrum/Position_2_011[-5.00]_EER.mrc	5.195456	5.195456	0.047598	128	None	0.000001	good	0.999774
frames/Position_2_012[-8.00]_EER.eer	1	-8.010000	84.200000	34.100000	-5.500000	Position_2_012[-8.00]_EER.mrc	External/job002/warp_frameseries/average/Position_2_012[-8.00]_EER.mrc	External/job002/warp_frameseries/average/even/Position_2_012[-8.00]_EER.mrc	External/job002/warp_frameseries/average/odd/Position_2_012[-8.00]_EER.mrc	None	0.000001	0.000001	0.000001	External/job002/warp_frameseries/powerspectrum/Position_2_012[-8.00]_EER.mrc	5.197476	5.197476	0.042295	127	None	0.000001	good	0.992822
frames/Position_2_013[28.00]_EER.eer	1	27.990000	84.200000	37.200000	-5.500000	Position_2_013[28.00]_EER.mrc	External/job002/warp_frameseries/average/Position_2_013[28.00]_EER.mrc	External/job002/warp_frameseries/average/even/Position_2_013[28.00]_EER.mrc	External/job002/warp_frameseries/average/odd/Position_2_013[28.00]_EER.mrc	None	0.000001	0.000001	0.000001	External/job002/warp_frameseries/powerspectrum/Position_2_013[28.00]_EER.mrc	5.392482	5.392482	0.053921	115	None	0.000001	good	0.999902
frames/Position_2_014[31.00]_EER.eer	1	30.990000	84.200000	40.300000	-5.500000	Position_2_014[31.00]_EER.mrc	External/job002/warp_frameseries/average/Position_2_014[31.00]_EER.mrc	External/job002/warp_frameseries/average/even/Position_2_014[31.00]_EER.mrc	External/job002/warp_frameseries/average/odd/Position_2_014[31.00]_EER.mrc	None	0.000001	0.000001	0.000001	External/job002/warp_frameseries/powerspectrum/Position_2_014[31.00]_EER.mrc	5.357422	5.357422	0.040320	94	None	0.000001	good	0.999847
frames/Position_2_015[-11.00]_EER.eer	1	-11.010000	84.200000	43.400000	-5.500000	Position_2_015[-11.00]_EER.mrc	External/job002/warp_frameseries/average/Position_2_015[-11.00]_EER.mrc	External/job002/warp_frameseries/average/even/Position_2_015[-11.00]_EER.mrc	External/job002/warp_frameseries/average/odd/Position_2_015[-11.00]_EER.mrc	None	0.000001	0.000001	0.000001	External/job002/warp_frameseries/powerspectrum/Position_2_015[-11.00]_EER.mrc	5.182774	5.182774	0.057724	111	None	0.000001	good	0.999548
frames/Position_2_016[-14.00]_EER.eer	1	-14.000000	84.200000	46.500000	-5.500000	Position_2_016[-14.00]_EER.mrc	External/job002/warp_frameseries/average/Position_2_016[-14.00]_EER.mrc	External/job002/warp_frameseries/average/even/Position_2_016[-14.00]_EER.mrc	External/job002/warp_frameseries/average/odd/Position_2_016[-14.00]_EER.mrc	None	0.000001	0.000001	0.000001	External/job002/warp_frameseries/powerspectrum/Position_2_016[-14.00]_EER.mrc	5.254180	5.254180	0.046216	110	None	0.000001	good	0.998597
frames/Position_2_017[34.00]_EER.eer	1	33.990000	84.200000	49.600000	-5.500000	Position_2_017[34.00]_EER.mrc	External/job002/warp_frameseries/average/Position_2_017[34.00]_EER.mrc	External/job002/warp_frameseries/average/even/Position_2_017[34.00]_EER.mrc	External/job002/warp_frameseries/average/odd/Position_2_017[34.00]_EER.mrc	None	0.000001	0.000001	0.000001	External/job002/warp_frameseries/powerspectrum/Position_2_017[34.00]_EER.mrc	5.373051	5.373051	0.061916	104	None	0.000001	good	0.999715
frames/Position_2_018[37.00]_EER.eer	1	36.990000	84.200000	52.700000	-5.500000	Position_2_018[37.00]_EER.mrc	External/job002/warp_frameseries/average/Position_2_018[37.00]_EER.mrc	External/job002/warp_frameseries/average/even/Position_2_018[37.00]_EER.mrc	External/job002/warp_frameseries/average/odd/Position_2_018[37.00]_EER.mrc	None	0.000001	0.000001	0.000001	External/job002/warp_frameseries/powerspectrum/Position_2_018[37.00]_EER.mrc	5.391639	5.391639	0.044233	114	None	0.000001	good	0.999856
frames/Position_2_019[-17.00]_EER.eer	1	-17.010000	84.200000	55.800000	-5.500000	Position_2_019[-17.00]_EER.mrc	External/job002/warp_frameseries/average/Position_2_019[-17.00]_EER.mrc	External/job002/warp_frameseries/average/even/Position_2_019[-17.00]_EER.mrc	External/job002/warp_frameseries/average/odd/Position_2_019[-17.00]_EER.mrc	None	0.000001	0.000001	0.000001	External/job002/warp_frameseries/powerspectrum/Position_2_019[-17.00]_EER.mrc	5.187036	5.187036	0.050062	107	None	0.000001	good	0.999373
frames/Position_2_020[-20.00]_EER.eer	1	-20.000000	84.200000	58.900000	-5.500000	Position_2_020[-20.00]_EER.mrc	External/job002/warp_frameseries/average/Position_2_020[-20.00]_EER.mrc	External/job002/warp_frameseries/average/even/Position_2_020[-20.00]_EER.mrc	External/job002/warp_frameseries/average/odd/Position_2_020[-20.00]_EER.mrc	None	0.000001	0.000001	0.000001	External/job002/warp_frameseries/powerspectrum/Position_2_020[-20.00]_EER.mrc	5.156362	5.156362	0.027661	124	None	0.000001	good	0.998061
frames/Position_2_021[40.00]_EER.eer	1	39.990000	84.200000	62.000000	-5.500000	Position_2_021[40.00]_EER.mrc	External/job002/warp_frameseries/average/Position_2_021[40.00]_EER.mrc	External/job002/warp_frameseries/average/even/Position_2_021[40.00]_EER.mrc	External/job002/warp_frameseries/average/odd/Position_2_021[40.00]_EER.mrc	None	0.000001	0.000001	0.000001	External/job002/warp_frameseries/powerspectrum/Position_2_021[40.00]_EER.mrc	5.352846	5.352846	0.029657	103	None	0.000001	good	0.999568
frames/Position_2_022[43.00]_EER.eer	1	42.990000	84.200000	65.100000	-5.500000	Position_2_022[43.00]_EER.mrc	External/job002/warp_frameseries/average/Position_2_022[43.00]_EER.mrc	External/job002/warp_frameseries/average/even/Position_2_022[43.00]_EER.mrc	External/job002/warp_frameseries/average/odd/Position_2_022[43.00]_EER.mrc	None	0.000001	0.000001	0.000001	External/job002/warp_frameseries/powerspectrum/Position_2_022[43.00]_EER.mrc	5.364634	5.364634	0.066907	114	None	0.000001	good	0.999779
frames/Position_2_023[-23.00]_EER.eer	1	-23.010000	84.200000	68.200000	-5.500000	Position_2_023[-23.00]_EER.mrc	External/job002/warp_frameseries/average/Position_2_023[-23.00]_EER.mrc	External/job002/warp_frameseries/average/even/Position_2_023[-23.00]_EER.mrc	External/job002/warp_frameseries/average/odd/Position_2_023[-23.00]_EER.mrc	None	0.000001	0.000001	0.000001	External/job002/warp_frameseries/powerspectrum/Position_2_023[-23.00]_EER.mrc	5.162156	5.162156	0.045275	104	None	0.000001	good	0.996428
frames/Position_2_024[-26.00]_EER.eer	1	-26.010000	84.200000	71.300000	-5.500000	Position_2_024[-26.00]_EER.mrc	External/job002/warp_frameseries/average/Position_2_024[-26.00]_EER.mrc	External/job002/warp_frameseries/average/even/Position_2_024[-26.00]_EER.mrc	External/job002/warp_frameseries/average/odd/Position_2_024[-26.00]_EER.mrc	None	0.000001	0.000001	0.000001	External/job002/warp_frameseries/powerspectrum/Position_2_024[-26.00]_EER.mrc	5.143702	5.143702	0.112483	118	None	0.000001	good	0.992300
frames/Position_2_025[46.00]_EER.eer	1	45.990000	84.200000	74.400000	-5.500000	Position_2_025[46.00]_EER.mrc	External/job002/warp_frameseries/average/Position_2_025[46.00]_EER.mrc	External/job002/warp_frameseries/average/even/Position_2_025[46.00]_EER.mrc	External/job002/warp_frameseries/average/odd/Position_2_025[46.00]_EER.mrc	None	0.000001	0.000001	0.000001	External/job002/warp_frameseries/powerspectrum/Position_2_025[46.00]_EER.mrc	3.320649	3.320649	0.164222	32	None	0.000001	good	0.999782
frames/Position_2_026[49.00]_EER.eer	1	48.990000	84.200000	77.500000	-5.500000	Position_2_026[49.00]_EER.mrc	External/job002/warp_frameseries/average/Position_2_026[49.00]_EER.mrc	External/job002/warp_frameseries/average/even/Position_2_026[49.00]_EER.mrc	External/job002/warp_frameseries/average/odd/Position_2_026[49.00]_EER.mrc	None	0.000001	0.000001	0.000001	External/job002/warp_frameseries/powerspectrum/Position_2_026[49.00]_EER.mrc	5.534607	5.534607	0.054561	49	None	0.000001	good	0.974273
frames/Position_2_027[-29.00]_EER.eer	1	-29.010000	84.200000	80.600000	-5.500000	Position_2_027[-29.00]_EER.mrc	External/job002/warp_frameseries/average/Position_2_027[-29.00]_EER.mrc	External/job002/warp_frameseries/average/even/Position_2_027[-29.00]_EER.mrc	External/job002/warp_frameseries/average/odd/Position_2_027[-29.00]_EER.mrc	None	0.000001	0.000001	0.000001	External/job002/warp_frameseries/powerspectrum/Position_2_027[-29.00]_EER.mrc	5.204354	5.204354	0.055330	94	None	0.000001	good	0.987655
frames/Position_2_028[-32.00]_EER.eer	1	-32.010000	84.200000	83.700000	-5.500000	Position_2_028[-32.00]_EER.mrc	External/job002/warp_frameseries/average/Position_2_028[-32.00]_EER.mrc	External/job002/warp_frameseries/average/even/Position_2_028[-32.00]_EER.mrc	External/job002/warp_frameseries/average/odd/Position_2_028[-32.00]_EER.mrc	None	0.000001	0.000001	0.000001	External/job002/warp_frameseries/powerspectrum/Position_2_028[-32.00]_EER.mrc	5.082278	5.082278	0.035839	131	None	0.000001	good	0.993252
