# Created by the starfile Python package (version 0.5.6) at 12:42:49 on 26/03/2024


data_Position_12

loop_
_rlnMicrographMovieName #1
_rlnTomoTiltMovieFrameCount #2
_rlnTomoNominalStageTiltAngle #3
_rlnTomoNominalTiltAxisAngle #4
_rlnMicrographPreExposure #5
_rlnTomoNominalDefocus #6
_rlnCtfPowerSpectrum #7
_rlnMicrographNameEven #8
_rlnMicrographNameOdd #9
_rlnMicrographName #10
_rlnMicrographMetadata #11
_rlnAccumMotionTotal #12
_rlnAccumMotionEarly #13
_rlnAccumMotionLate #14
_rlnCtfImage #15
_rlnDefocusU #16
_rlnDefocusV #17
_rlnCtfAstigmatism #18
_rlnDefocusAngle #19
_rlnCtfFigureOfMerit #20
_rlnCtfMaxResolution #21
_cryoBoostLabel #22
data/tilts/frames//Position_12_001_-10.00_20231020_234209_EER.eer	1	-10.010000	-95.000000	0.000000	-3.500000	data/tilts/tiltImg/Position_12_001_-10_00_20231020_234209_EER_PS.mrc	data/tilts/tiltImg/Position_12_001_-10_00_20231020_234209_EER_EVN.mrc	data/tilts/tiltImg/Position_12_001_-10_00_20231020_234209_EER_ODD.mrc	data/tilts/tiltImg/Position_12_001_-10_00_20231020_234209_EER.mrc	data/tilts/tiltImg/Position_12_001_-10_00_20231020_234209_EER.star	5.870238	3.501585	2.368653	CtfFind/job007/data/tilts/frames//Position_12_001_-10_00_20231020_234209_EER_PS.ctf:mrc	33154.871094	32532.486328	622.384766	-81.907780	0.014743	9.376000	good
data/tilts/frames//Position_12_002_-12.00_20231020_234233_EER.eer	1	-11.990000	-95.000000	3.000000	-3.500000	data/tilts/tiltImg/Position_12_002_-12_00_20231020_234233_EER_PS.mrc	data/tilts/tiltImg/Position_12_002_-12_00_20231020_234233_EER_EVN.mrc	data/tilts/tiltImg/Position_12_002_-12_00_20231020_234233_EER_ODD.mrc	data/tilts/tiltImg/Position_12_002_-12_00_20231020_234233_EER.mrc	data/tilts/tiltImg/Position_12_002_-12_00_20231020_234233_EER.star	5.554936	0.000000	5.554936	CtfFind/job007/data/tilts/frames//Position_12_002_-12_00_20231020_234233_EER_PS.ctf:mrc	32668.527344	31524.228516	1144.298828	-4.384500	0.015526	9.494684	good
data/tilts/frames//Position_12_003_-8.00_20231020_234300_EER.eer	1	-7.990000	-95.000000	6.000000	-3.500000	data/tilts/tiltImg/Position_12_003_-8_00_20231020_234300_EER_PS.mrc	data/tilts/tiltImg/Position_12_003_-8_00_20231020_234300_EER_EVN.mrc	data/tilts/tiltImg/Position_12_003_-8_00_20231020_234300_EER_ODD.mrc	data/tilts/tiltImg/Position_12_003_-8_00_20231020_234300_EER.mrc	data/tilts/tiltImg/Position_12_003_-8_00_20231020_234300_EER.star	5.753326	0.000000	5.753326	CtfFind/job007/data/tilts/frames//Position_12_003_-8_00_20231020_234300_EER_PS.ctf:mrc	32965.707031	32098.000000	867.707031	5.869375	0.012774	10.639433	good


